Data from CNx diffuse reflectance - 2_Reflection_1.txt Node
Date: Sat Mar 20 19:11:24 PDT 2021
User: jasperp
Spectrometer: MAYP114014
Trigger mode: 0
Integration Time (sec): 1.000000E-1
Scans to average: 100
Electric dark correction enabled: true
Nonlinearity correction enabled: true
Boxcar width: 3
XAxis mode: Wavelengths
Number of Pixels in Spectrum: 2068
>>>>>Begin Spectral Data<<<<<
198.145	360.288
198.618	157.0152
199.091	137.9939
199.564	114.4383
200.037	91.7894
200.51	87.9167
200.983	84.6489
201.456	82.2918
201.929	78.6459
202.402	75.3592
202.874	72.5982
203.347	72.7956
203.82	71.6407
204.293	69.9715
204.766	68.7351
205.238	67.8295
205.711	67.0192
206.184	66.6688
206.656	66.3028
207.129	65.147
207.602	64.7409
208.074	64.514
208.547	63.1688
209.019	62.3775
209.492	61.2347
209.964	59.4902
210.437	59.238
210.909	58.1155
211.381	57.0262
211.854	56.8476
212.326	56.1962
212.798	55.9205
213.271	55.9488
213.743	54.703
214.215	54.8281
214.688	53.833
215.16	53.1007
215.632	52.3825
216.104	51.7452
216.576	51.1401
217.048	50.57
217.52	49.3211
217.993	49.0747
218.465	48.1916
218.937	47.7956
219.409	46.9722
219.881	45.6065
220.352	44.8834
220.824	44.3599
221.296	43.399
221.768	42.4142
222.24	41.2801
222.712	40.439
223.184	39.9615
223.655	39.3424
224.127	38.6641
224.599	38.2388
225.07	37.661
225.542	37.2395
226.014	36.6004
226.485	35.8694
226.957	35.2569
227.429	34.6145
227.9	33.9027
228.372	33.4307
228.843	32.8882
229.315	32.3275
229.786	32.1399
230.257	31.7097
230.729	31.3274
231.2	30.8698
231.672	30.4216
232.143	29.9365
232.614	29.633
233.086	29.1582
233.557	28.7747
234.028	28.2956
234.499	27.9627
234.97	27.6159
235.442	27.3699
235.913	27.0821
236.384	26.7946
236.855	26.5478
237.326	26.4445
237.797	26.2667
238.268	26.1454
238.739	25.9568
239.21	25.7726
239.681	25.4985
240.152	25.2257
240.623	24.9681
241.093	24.786
241.564	24.6098
242.035	24.385
242.506	24.1947
242.977	24.1039
243.447	24.0709
243.918	24.0015
244.389	23.8905
244.859	23.6158
245.33	23.5291
245.801	23.4186
246.271	23.215
246.742	23.1072
247.212	22.9083
247.683	22.6912
248.153	22.7084
248.624	22.6057
249.094	22.4619
249.565	22.3576
250.035	22.1472
250.505	22.0641
250.976	21.9839
251.446	21.8642
251.916	21.6686
252.387	21.5617
252.857	21.5759
253.327	21.5311
253.797	21.437
254.267	21.3586
254.737	21.2423
255.208	21.2216
255.678	21.1038
256.148	20.9346
256.618	20.812
257.088	20.7076
257.558	20.6595
258.028	20.5929
258.498	20.5061
258.968	20.4965
259.437	20.4872
259.907	20.4419
260.377	20.3991
260.847	20.3408
261.317	20.3592
261.787	20.3287
262.256	20.2573
262.726	20.0837
263.196	19.9831
263.665	19.9324
264.135	19.853
264.605	19.6755
265.074	19.5036
265.544	19.4336
266.013	19.4094
266.483	19.3888
266.952	19.2488
267.422	19.1177
267.891	19.1083
268.361	19.0521
268.83	19.0029
269.299	18.9404
269.769	18.81
270.238	18.81
270.707	18.7822
271.177	18.7159
271.646	18.8001
272.115	18.7138
272.584	18.7831
273.053	18.8018
273.523	18.7704
273.992	18.7752
274.461	18.8488
274.93	18.79
275.399	18.8301
275.868	18.6749
276.337	18.6782
276.806	18.7698
277.275	18.7226
277.744	18.6813
278.213	18.6208
278.681	18.5908
279.15	18.7119
279.619	18.7215
280.088	18.6122
280.557	18.6781
281.025	18.65
281.494	18.6916
281.963	18.6337
282.432	18.4705
282.9	18.3846
283.369	18.3387
283.837	18.2435
284.306	18.1709
284.774	18.047
285.243	17.9883
285.711	17.9408
286.18	17.9212
286.648	17.8687
287.117	17.7577
287.585	17.6688
288.054	17.6423
288.522	17.5525
288.99	17.509
289.458	17.431
289.927	17.4102
290.395	17.3881
290.863	17.3189
291.331	17.2539
291.8	17.2648
292.268	17.231
292.736	17.1838
293.204	17.1217
293.672	17.0776
294.14	17.0448
294.608	16.9993
295.076	16.9837
295.544	16.9351
296.012	16.9233
296.48	16.8708
296.948	16.838
297.416	16.8455
297.883	16.8461
298.351	16.8314
298.819	16.8451
299.287	16.7957
299.754	16.7927
300.222	16.777
300.69	16.7389
301.158	16.7097
301.625	16.6848
302.093	16.6354
302.56	16.6627
303.028	16.6722
303.495	16.6735
303.963	16.6656
304.43	16.6469
304.898	16.6185
305.365	16.6154
305.833	16.603
306.3	16.5652
306.767	16.5584
307.235	16.5325
307.702	16.5028
308.169	16.4786
308.637	16.4713
309.104	16.4379
309.571	16.4119
310.038	16.3971
310.505	16.3886
310.973	16.3905
311.44	16.3591
311.907	16.3641
312.374	16.3187
312.841	16.3194
313.308	16.27
313.775	16.2467
314.242	16.2117
314.709	16.2243
315.176	16.1456
315.642	16.1338
316.109	16.0892
316.576	16.0457
317.043	16.0159
317.51	16.0204
317.976	15.9505
318.443	15.9476
318.91	15.9103
319.376	15.8768
319.843	15.8715
320.31	15.8638
320.776	15.825
321.243	15.8019
321.709	15.7394
322.176	15.7222
322.642	15.683
323.109	15.6608
323.575	15.596
324.042	15.5386
324.508	15.5139
324.975	15.5017
325.441	15.462
325.907	15.4612
326.373	15.4771
326.84	15.4556
327.306	15.4484
327.772	15.4166
328.238	15.4098
328.705	15.3874
329.171	15.3457
329.637	15.2679
330.103	15.2529
330.569	15.2139
331.035	15.1921
331.501	15.1664
331.967	15.1394
332.433	15.1083
332.899	15.079
333.365	15.0626
333.831	15.0575
334.296	15.038
334.762	15.0245
335.228	15.0087
335.694	14.9926
336.16	14.9995
336.625	14.9809
337.091	14.9556
337.557	14.9606
338.022	14.9492
338.488	14.924
338.954	14.9483
339.419	14.9189
339.885	14.8964
340.35	14.9087
340.816	14.8799
341.281	14.8369
341.747	14.8201
342.212	14.7633
342.677	14.7333
343.143	14.7024
343.608	14.6421
344.074	14.6092
344.539	14.5794
345.004	14.5511
345.469	14.532
345.935	14.4899
346.4	14.4612
346.865	14.4325
347.33	14.3969
347.795	14.3846
348.26	14.3503
348.725	14.3053
349.19	14.2974
349.655	14.2923
350.12	14.2805
350.585	14.2548
351.05	14.2223
351.515	14.2035
351.98	14.1864
352.445	14.1678
352.91	14.1406
353.374	14.1286
353.839	14.1201
354.304	14.1008
354.769	14.0909
355.233	14.065
355.698	14.0239
356.163	13.9766
356.627	13.9575
357.092	13.9271
357.557	13.9134
358.021	13.903
358.486	13.9026
358.95	13.9069
359.415	13.8674
359.879	13.8324
360.343	13.8189
360.808	13.7775
361.272	13.7447
361.737	13.7278
362.201	13.6974
362.665	13.7177
363.129	13.7018
363.594	13.6828
364.058	13.695
364.522	13.6988
364.986	13.68
365.45	13.6611
365.914	13.6439
366.378	13.6476
366.843	13.6377
367.307	13.6146
367.771	13.5815
368.235	13.5549
368.699	13.5314
369.162	13.521
369.626	13.4975
370.09	13.487
370.554	13.4625
371.018	13.4481
371.482	13.4591
371.945	13.4702
372.409	13.472
372.873	13.4503
373.337	13.438
373.8	13.4389
374.264	13.4214
374.728	13.3934
375.191	13.3591
375.655	13.3353
376.118	13.333
376.582	13.3152
377.045	13.3142
377.509	13.3118
377.972	13.303
378.435	13.2976
378.899	13.283
379.362	13.2927
379.826	13.2996
380.289	13.2913
380.752	13.3052
381.215	13.3128
381.679	13.3389
382.142	13.3503
382.605	13.3217
383.068	13.304
383.531	13.2955
383.994	13.2922
384.457	13.2881
384.92	13.2721
385.383	13.2413
385.846	13.2503
386.309	13.2745
386.772	13.2856
387.235	13.2801
387.698	13.2869
388.161	13.285
388.624	13.3084
389.087	13.3139
389.549	13.322
390.012	13.3356
390.475	13.3489
390.938	13.3733
391.4	13.401
391.863	13.4184
392.326	13.4427
392.788	13.4494
393.251	13.464
393.713	13.4886
394.176	13.4904
394.638	13.5073
395.101	13.5152
395.563	13.5513
396.026	13.5865
396.488	13.6076
396.95	13.6349
397.413	13.6637
397.875	13.698
398.337	13.7389
398.8	13.751
399.262	13.7768
399.724	13.8129
400.186	13.848
400.648	13.8752
401.111	13.9081
401.573	13.9485
402.035	13.9947
402.497	14.0341
402.959	14.0683
403.421	14.0932
403.883	14.147
404.345	14.1852
404.807	14.2294
405.269	14.2659
405.73	14.312
406.192	14.3585
406.654	14.3991
407.116	14.4531
407.578	14.4941
408.039	14.5449
408.501	14.6055
408.963	14.648
409.424	14.7032
409.886	14.7877
410.348	14.8463
410.809	14.9307
411.271	15.0154
411.732	15.0804
412.194	15.1604
412.655	15.2379
413.117	15.3169
413.578	15.4013
414.039	15.4908
414.501	15.5815
414.962	15.6896
415.424	15.8105
415.885	15.937
416.346	16.0587
416.807	16.1902
417.269	16.321
417.73	16.4658
418.191	16.6023
418.652	16.7408
419.113	16.8923
419.574	17.038
420.035	17.2061
420.496	17.3641
420.957	17.5279
421.418	17.7124
421.879	17.8896
422.34	18.0754
422.801	18.2817
423.262	18.478
423.723	18.708
424.183	18.9268
424.644	19.1819
425.105	19.4523
425.566	19.7267
426.026	20.0143
426.487	20.3191
426.948	20.6062
427.408	20.9324
427.869	21.2287
428.33	21.5418
428.79	21.8483
429.251	22.1667
429.711	22.4885
430.172	22.8446
430.632	23.1711
431.093	23.5353
431.553	23.9086
432.013	24.2872
432.474	24.6779
432.934	25.0713
433.394	25.4905
433.854	25.9331
434.315	26.3535
434.775	26.7638
435.235	27.2203
435.695	27.6744
436.155	28.139
436.615	28.5604
437.076	29.0098
437.536	29.4725
437.996	29.9413
438.456	30.3794
438.916	30.8321
439.376	31.2714
439.835	31.7237
440.295	32.1554
440.755	32.5881
441.215	33.0552
441.675	33.5017
442.135	33.9276
442.594	34.3903
443.054	34.8386
443.514	35.3211
443.973	35.778
444.433	36.2126
444.893	36.7038
445.352	37.1919
445.812	37.6617
446.271	38.1603
446.731	38.6323
447.19	39.1388
447.65	39.6294
448.109	40.101
448.569	40.5772
449.028	41.0412
449.487	41.5241
449.947	41.9921
450.406	42.4437
450.865	42.9215
451.325	43.4056
451.784	43.8614
452.243	44.304
452.702	44.7559
453.161	45.2293
453.62	45.6756
454.08	46.1042
454.539	46.516
454.998	46.9321
455.457	47.3714
455.916	47.7576
456.375	48.1104
456.834	48.4829
457.292	48.866
457.751	49.2336
458.21	49.5971
458.669	49.9611
459.128	50.3204
459.587	50.6827
460.045	51.0463
460.504	51.3972
460.963	51.7574
461.421	52.0936
461.88	52.4392
462.339	52.8018
462.797	53.1362
463.256	53.4907
463.714	53.8354
464.173	54.1695
464.631	54.5306
465.09	54.8661
465.548	55.19
466.007	55.57
466.465	55.9151
466.923	56.3084
467.382	56.7013
467.84	57.123
468.298	57.509
468.756	57.9039
469.215	58.2712
469.673	58.6545
470.131	58.9887
470.589	59.3271
471.047	59.6195
471.505	59.937
471.963	60.2415
472.421	60.4925
472.879	60.7354
473.337	60.9366
473.795	61.15
474.253	61.3814
474.711	61.5853
475.169	61.7759
475.627	61.9825
476.084	62.1842
476.542	62.4185
477	62.6093
477.458	62.8283
477.915	63.0399
478.373	63.2615
478.831	63.4816
479.288	63.6695
479.746	63.8482
480.203	63.9753
480.661	64.0406
481.118	64.0689
481.576	64.0456
482.033	64.0186
482.491	63.9763
482.948	63.9453
483.406	63.968
483.863	63.9999
484.32	64.0906
484.778	64.2152
485.235	64.3488
485.692	64.5154
486.149	64.7032
486.606	64.8684
487.064	65.0993
487.521	65.3749
487.978	65.7582
488.435	66.2355
488.892	66.7716
489.349	67.3226
489.806	67.9692
490.263	68.5413
490.72	68.9975
491.177	69.3128
491.634	69.5296
492.091	69.7261
492.547	69.9403
493.004	70.1108
493.461	70.3276
493.918	70.5648
494.374	70.7193
494.831	70.8795
495.288	71.0524
495.744	71.2223
496.201	71.3405
496.658	71.494
497.114	71.6188
497.571	71.8238
498.027	71.9871
498.484	72.0983
498.94	72.2637
499.397	72.4135
499.853	72.5365
500.309	72.6832
500.766	72.8048
501.222	72.9737
501.678	73.1839
502.135	73.304
502.591	73.4908
503.047	73.6501
503.503	73.8444
503.959	73.9979
504.415	74.1824
504.872	74.3396
505.328	74.532
505.784	74.7326
506.24	74.9486
506.696	75.1389
507.152	75.2992
507.608	75.4395
508.064	75.605
508.519	75.7838
508.975	75.9171
509.431	76.0423
509.887	76.1605
510.343	76.3721
510.798	76.5068
511.254	76.701
511.71	76.8458
512.165	77.0257
512.621	77.2272
513.077	77.3849
513.532	77.5391
513.988	77.751
514.443	77.8661
514.899	78.0305
515.354	78.1734
515.81	78.2973
516.265	78.4965
516.721	78.6077
517.176	78.6848
517.631	78.812
518.087	78.9382
518.542	79.081
518.997	79.2172
519.452	79.3119
519.908	79.4152
520.363	79.5924
520.818	79.6895
521.273	79.7758
521.728	79.8763
522.183	79.9615
522.638	80.033
523.093	80.1249
523.548	80.1837
524.003	80.3113
524.458	80.391
524.913	80.4706
525.368	80.5209
525.823	80.6239
526.278	80.7354
526.732	80.8222
527.187	80.8842
527.642	80.9501
528.097	80.9731
528.551	81.0717
529.006	81.1284
529.461	81.1713
529.915	81.2375
530.37	81.2628
530.824	81.3119
531.279	81.3728
531.733	81.323
532.188	81.3484
532.642	81.42
533.097	81.4841
533.551	81.5535
534.005	81.6218
534.46	81.6851
534.914	81.8127
535.368	81.9001
535.822	81.9628
536.277	81.966
536.731	82.05
537.185	82.0854
537.639	82.1486
538.093	82.2279
538.547	82.2726
539.001	82.3101
539.455	82.3694
539.909	82.408
540.363	82.4482
540.817	82.5295
541.271	82.5512
541.725	82.605
542.179	82.6742
542.633	82.7516
543.087	82.8005
543.54	82.8654
543.994	82.903
544.448	82.9838
544.902	82.9776
545.355	83.0532
545.809	83.1105
546.262	83.1923
546.716	83.2912
547.17	83.3368
547.623	83.4057
548.077	83.5181
548.53	83.5171
548.984	83.6209
549.437	83.6951
549.89	83.7699
550.344	83.8632
550.797	83.9174
551.25	84.0112
551.704	84.0889
552.157	84.138
552.61	84.1698
553.063	84.1647
553.516	84.2103
553.97	84.2706
554.423	84.3287
554.876	84.4215
555.329	84.4631
555.782	84.5034
556.235	84.5831
556.688	84.6738
557.141	84.7122
557.594	84.7296
558.047	84.813
558.499	84.8323
558.952	84.9245
559.405	84.9869
559.858	85.0401
560.311	85.0621
560.763	85.1156
561.216	85.1129
561.669	85.1284
562.121	85.1081
562.574	85.0963
563.027	85.0726
563.479	85.0957
563.932	85.1068
564.384	85.0932
564.837	85.0647
565.289	85.0674
565.742	85.0492
566.194	85.0304
566.646	85.0236
567.099	85.0081
567.551	84.9969
568.003	85.0309
568.456	84.9689
568.908	84.9813
569.36	84.9686
569.812	84.9379
570.264	84.9169
570.716	84.9121
571.168	84.9162
571.621	84.9725
572.073	84.9886
572.525	85.0226
572.977	85.0978
573.428	85.1362
573.88	85.1951
574.332	85.236
574.784	85.2849
575.236	85.3385
575.688	85.3962
576.14	85.4301
576.591	85.4648
577.043	85.5028
577.495	85.5502
577.946	85.6158
578.398	85.6668
578.85	85.7057
579.301	85.7456
579.753	85.8248
580.204	85.8892
580.656	85.9549
581.107	86.0012
581.559	86.0686
582.01	86.1427
582.462	86.2088
582.913	86.2713
583.364	86.3579
583.816	86.458
584.267	86.5383
584.718	86.604
585.169	86.704
585.621	86.8013
586.072	86.8835
586.523	86.9541
586.974	87.005
587.425	87.0887
587.876	87.1737
588.327	87.2395
588.778	87.2816
589.229	87.3531
589.68	87.4035
590.131	87.4744
590.582	87.5114
591.033	87.5688
591.484	87.6388
591.934	87.7625
592.385	87.8232
592.836	87.883
593.287	87.9271
593.737	87.9946
594.188	88.039
594.639	88.0455
595.089	88.0598
595.54	88.1301
595.99	88.1796
596.441	88.2403
596.891	88.3112
597.342	88.3676
597.792	88.4349
598.243	88.4838
598.693	88.5182
599.143	88.5797
599.594	88.6063
600.044	88.5975
600.494	88.6461
600.945	88.665
601.395	88.6995
601.845	88.7443
602.295	88.7975
602.745	88.8564
603.195	88.9396
603.645	88.9741
604.096	89.0574
604.546	89.1282
604.996	89.1697
605.446	89.1903
605.895	89.2411
606.345	89.2657
606.795	89.348
607.245	89.4152
607.695	89.4768
608.145	89.5171
608.594	89.5635
609.044	89.6099
609.494	89.6757
609.944	89.7031
610.393	89.7264
610.843	89.7771
611.292	89.8642
611.742	89.9224
612.192	89.9837
612.641	90.0388
613.091	90.0968
613.54	90.1457
613.989	90.1605
614.439	90.1537
614.888	90.2118
615.338	90.2533
615.787	90.2769
616.236	90.3272
616.685	90.3697
617.135	90.4322
617.584	90.5205
618.033	90.571
618.482	90.6076
618.931	90.6703
619.38	90.6832
619.829	90.7247
620.278	90.7989
620.727	90.8217
621.176	90.8778
621.625	90.9311
622.074	90.9696
622.523	91.0376
622.972	91.0828
623.421	91.0725
623.87	91.1439
624.319	91.181
624.767	91.2231
625.216	91.2802
625.665	91.3188
626.113	91.3644
626.562	91.4436
627.011	91.4638
627.459	91.4691
627.908	91.532
628.356	91.5843
628.805	91.6691
629.253	91.6939
629.702	91.7329
630.15	91.7839
630.598	91.8481
631.047	91.8439
631.495	91.8716
631.943	91.8789
632.392	91.9283
632.84	91.9246
633.288	91.9931
633.736	92.0092
634.184	92.0607
634.633	92.113
635.081	92.161
635.529	92.2128
635.977	92.2954
636.425	92.2959
636.873	92.3186
637.321	92.3258
637.769	92.356
638.217	92.3284
638.664	92.3833
639.112	92.3736
639.56	92.4471
640.008	92.5043
640.456	92.5885
640.903	92.618
641.351	92.6915
641.799	92.6862
642.246	92.7695
642.694	92.7591
643.142	92.8171
643.589	92.8423
644.037	92.7893
644.484	92.8194
644.932	92.8402
645.379	92.8541
645.826	92.8877
646.274	92.9206
646.721	92.9282
647.169	93.043
647.616	93.0495
648.063	93.0474
648.51	93.045
648.958	93.0956
649.405	93.0624
649.852	93.0492
650.299	93.0375
650.746	92.9174
651.193	92.6074
651.64	92.4141
652.087	92.3971
652.534	92.4259
652.981	92.4298
653.428	92.4398
653.875	92.4716
654.322	92.5481
654.769	92.6046
655.216	92.6343
655.662	92.6517
656.109	92.6768
656.556	92.7069
657.003	92.7358
657.449	92.7712
657.896	92.8698
658.342	92.953
658.789	93.0283
659.236	93.1325
659.682	93.2474
660.129	93.4345
660.575	93.7018
661.022	93.7693
661.468	93.7018
661.914	93.7517
662.361	93.7884
662.807	93.8228
663.253	93.852
663.7	93.8388
664.146	93.851
664.592	93.9015
665.038	93.9093
665.484	93.9308
665.931	93.981
666.377	93.9825
666.823	94.0154
667.269	94.0604
667.715	94.0567
668.161	94.0822
668.607	94.1059
669.053	94.0836
669.499	94.0892
669.944	94.1195
670.39	94.098
670.836	94.1553
671.282	94.1667
671.728	94.1797
672.173	94.1952
672.619	94.2151
673.065	94.1858
673.51	94.2038
673.956	94.1752
674.401	94.1664
674.847	94.1882
675.293	94.2133
675.738	94.2415
676.184	94.3015
676.629	94.3242
677.074	94.318
677.52	94.3706
677.965	94.3845
678.41	94.4098
678.856	94.4487
679.301	94.4324
679.746	94.4612
680.191	94.4874
680.637	94.4744
681.082	94.4776
681.527	94.4822
681.972	94.5003
682.417	94.5202
682.862	94.5503
683.307	94.5622
683.752	94.615
684.197	94.6337
684.642	94.6629
685.087	94.6689
685.532	94.6792
685.976	94.6696
686.421	94.7096
686.866	94.6949
687.311	94.6969
687.755	94.6756
688.2	94.6902
688.645	94.7077
689.089	94.7313
689.534	94.7341
689.979	94.7483
690.423	94.7757
690.868	94.8255
691.312	94.8736
691.757	94.8986
692.201	94.9165
692.645	94.9461
693.09	94.9684
693.534	95.0105
693.978	95.0314
694.423	95.018
694.867	95.0174
695.311	95.0387
695.755	95.0824
696.2	95.1157
696.644	95.1074
697.088	95.132
697.532	95.1641
697.976	95.2008
698.42	95.193
698.864	95.1816
699.308	95.1973
699.752	95.2646
700.196	95.2884
700.64	95.3029
701.083	95.3053
701.527	95.3475
701.971	95.3801
702.415	95.394
702.859	95.3698
703.302	95.3839
703.746	95.3932
704.19	95.3894
704.633	95.4236
705.077	95.4257
705.52	95.4442
705.964	95.4744
706.407	95.4684
706.851	95.4666
707.294	95.5043
707.738	95.4943
708.181	95.4981
708.624	95.5145
709.068	95.5396
709.511	95.5888
709.954	95.6108
710.398	95.6414
710.841	95.6701
711.284	95.6954
711.727	95.7298
712.17	95.7362
712.613	95.7335
713.056	95.7687
713.499	95.751
713.942	95.7547
714.385	95.7604
714.828	95.7614
715.271	95.7706
715.714	95.7947
716.157	95.8139
716.6	95.8693
717.043	95.8696
717.485	95.9097
717.928	95.9197
718.371	95.9452
718.813	95.9556
719.256	95.9748
719.699	95.9742
720.141	96.021
720.584	96.0475
721.026	96.0718
721.469	96.0906
721.911	96.0987
722.354	96.0908
722.796	96.1225
723.239	96.1225
723.681	96.0979
724.123	96.1095
724.566	96.1267
725.008	96.1257
725.45	96.1237
725.892	96.1586
726.334	96.1708
726.777	96.1895
727.219	96.201
727.661	96.1927
728.103	96.2149
728.545	96.2509
728.987	96.2441
729.429	96.284
729.871	96.3093
730.313	96.3365
730.755	96.346
731.197	96.3603
731.638	96.3407
732.08	96.3454
732.522	96.321
732.964	96.3362
733.405	96.3165
733.847	96.3428
734.289	96.3477
734.73	96.3853
735.172	96.3923
735.614	96.4355
736.055	96.4508
736.497	96.4807
736.938	96.4964
737.38	96.5311
737.821	96.5638
738.262	96.5913
738.704	96.6107
739.145	96.6095
739.586	96.6198
740.028	96.6394
740.469	96.6493
740.91	96.6523
741.351	96.6646
741.792	96.6797
742.233	96.717
742.675	96.7565
743.116	96.7819
743.557	96.8008
743.998	96.8444
744.439	96.855
744.88	96.8575
745.321	96.8928
745.761	96.8977
746.202	96.9057
746.643	96.9174
747.084	96.9108
747.525	96.9441
747.965	96.9771
748.406	96.9715
748.847	96.9778
749.287	96.9985
749.728	96.9941
750.169	97.008
750.609	97.0204
751.05	97.0168
751.49	97.0151
751.931	97.0021
752.371	97.0028
752.812	97.028
753.252	97.0532
753.692	97.0619
754.133	97.0584
754.573	97.0928
755.013	97.1212
755.454	97.1319
755.894	97.1498
756.334	97.1321
756.774	97.1551
757.214	97.2024
757.654	97.2154
758.094	97.2252
758.534	97.2404
758.974	97.2765
759.414	97.2759
759.854	97.2427
760.294	97.2444
760.734	97.2706
761.174	97.3118
761.614	97.3206
762.054	97.3018
762.493	97.3414
762.933	97.3947
763.373	97.4165
763.812	97.393
764.252	97.401
764.692	97.4256
765.131	97.4407
765.571	97.4745
766.01	97.4985
766.45	97.4869
766.889	97.5182
767.329	97.5163
767.768	97.5216
768.208	97.548
768.647	97.5694
769.086	97.5711
769.526	97.6069
769.965	97.6212
770.404	97.6459
770.843	97.6621
771.282	97.6896
771.722	97.6748
772.161	97.6781
772.6	97.6916
773.039	97.7102
773.478	97.7429
773.917	97.772
774.356	97.7797
774.795	97.7937
775.234	97.8171
775.672	97.821
776.111	97.8505
776.55	97.8476
776.989	97.8488
777.428	97.8883
777.866	97.9045
778.305	97.9362
778.744	97.974
779.182	97.9917
779.621	98.0209
780.06	98.0467
780.498	98.0334
780.937	98.0448
781.375	98.0367
781.814	98.0221
782.252	98.0214
782.69	98.0131
783.129	98.0219
783.567	98.0273
784.005	98.0465
784.444	98.0902
784.882	98.1162
785.32	98.1347
785.758	98.1436
786.196	98.1212
786.635	98.1424
787.073	98.1567
787.511	98.1557
787.949	98.1578
788.387	98.1522
788.825	98.1783
789.263	98.1943
789.701	98.2281
790.139	98.2524
790.576	98.2397
791.014	98.2642
791.452	98.3024
791.89	98.3289
792.328	98.3932
792.765	98.393
793.203	98.4171
793.641	98.4261
794.078	98.4296
794.516	98.4373
794.953	98.429
795.391	98.4158
795.828	98.4474
796.266	98.4522
796.703	98.5078
797.141	98.5419
797.578	98.5791
798.015	98.627
798.453	98.65
798.89	98.6721
799.327	98.6601
799.765	98.6653
800.202	98.6579
800.639	98.666
801.076	98.6495
801.513	98.6732
801.95	98.6615
802.387	98.6928
802.824	98.7043
803.261	98.7514
803.698	98.7491
804.135	98.7731
804.572	98.7824
805.009	98.8093
805.446	98.8587
805.883	98.8878
806.319	98.879
806.756	98.8826
807.193	98.8993
807.629	98.9066
808.066	98.8973
808.503	98.8947
808.939	98.8853
809.376	98.9325
809.812	98.9498
810.249	98.9782
810.685	99.0026
811.122	99.0248
811.558	99.0462
811.995	99.0793
812.431	99.0761
812.867	99.1195
813.304	99.11
813.74	99.1335
814.176	99.1644
814.612	99.1535
815.049	99.1417
815.485	99.1262
815.921	99.1198
816.357	99.1798
816.793	99.1888
817.229	99.2083
817.665	99.2638
818.101	99.3082
818.537	99.3272
818.973	99.3185
819.409	99.2825
819.845	99.2708
820.28	99.2624
820.716	99.2554
821.152	99.2328
821.588	99.251
822.023	99.2853
822.459	99.3109
822.895	99.3458
823.33	99.3692
823.766	99.3559
824.201	99.407
824.637	99.4334
825.072	99.4577
825.508	99.4732
825.943	99.4696
826.379	99.4526
826.814	99.4827
827.249	99.4807
827.685	99.5166
828.12	99.5235
828.555	99.5422
828.99	99.5583
829.425	99.6005
829.861	99.6294
830.296	99.6409
830.731	99.5995
831.166	99.6205
831.601	99.6128
832.036	99.6374
832.471	99.6572
832.906	99.6572
833.341	99.6922
833.776	99.7568
834.21	99.7504
834.645	99.7911
835.08	99.7742
835.515	99.7758
835.949	99.7627
836.384	99.733
836.819	99.719
837.253	99.7443
837.688	99.7405
838.123	99.7833
838.557	99.7766
838.992	99.827
839.426	99.8668
839.861	99.8995
840.295	99.9099
840.729	99.9276
841.164	99.9667
841.598	99.9915
842.032	100.0035
842.467	100.0015
842.901	99.984
843.335	100.0215
843.769	100.0332
844.203	99.9899
844.637	99.993
845.072	99.9665
845.506	100.015
845.94	100.0546
846.374	100.0408
846.808	100.0582
847.242	100.0942
847.675	100.1402
848.109	100.1792
848.543	100.185
848.977	100.1697
849.411	100.1917
849.844	100.2251
850.278	100.2592
850.712	100.243
851.146	100.2354
851.579	100.2193
852.013	100.2474
852.446	100.2462
852.88	100.2613
853.313	100.2615
853.747	100.2801
854.18	100.3206
854.614	100.3787
855.047	100.3591
855.48	100.3882
855.914	100.362
856.347	100.3854
856.78	100.4079
857.214	100.4178
857.647	100.3724
858.08	100.4187
858.513	100.4184
858.946	100.4408
859.379	100.4334
859.812	100.4202
860.245	100.4281
860.678	100.4567
861.111	100.4876
861.544	100.5226
861.977	100.5383
862.41	100.5812
862.843	100.6311
863.275	100.6329
863.708	100.6366
864.141	100.6183
864.574	100.6033
865.006	100.5892
865.439	100.5987
865.872	100.6046
866.304	100.6251
866.737	100.6553
867.169	100.6605
867.602	100.6619
868.034	100.7023
868.467	100.701
868.899	100.6706
869.331	100.67
869.764	100.6976
870.196	100.7274
870.628	100.7553
871.061	100.7712
871.493	100.7904
871.925	100.8307
872.357	100.8514
872.789	100.8433
873.221	100.8487
873.653	100.8506
874.086	100.8456
874.518	100.8675
874.949	100.8879
875.381	100.9005
875.813	100.8916
876.245	100.9101
876.677	100.9245
877.109	100.9529
877.541	100.9398
877.972	100.9696
878.404	100.9791
878.836	101.0102
879.267	101.0418
879.699	101.0645
880.131	101.0648
880.562	101.0651
880.994	101.0626
881.425	101.082
881.857	101.0981
882.288	101.0693
882.72	101.0928
883.151	101.1226
883.582	101.164
884.014	101.159
884.445	101.1785
884.876	101.1783
885.308	101.2328
885.739	101.2446
886.17	101.2509
886.601	101.2541
887.032	101.2293
887.463	101.2328
887.894	101.2502
888.325	101.2275
888.756	101.2104
889.187	101.232
889.618	101.2685
890.049	101.3323
890.48	101.3629
890.911	101.4005
891.342	101.4254
891.772	101.4566
892.203	101.4385
892.634	101.4358
893.064	101.4444
893.495	101.3853
893.926	101.3688
894.356	101.3848
894.787	101.4164
895.217	101.4385
895.648	101.4264
896.078	101.4245
896.509	101.4597
896.939	101.4727
897.369	101.4835
897.8	101.5008
898.23	101.5062
898.66	101.4886
899.091	101.5195
899.521	101.5356
899.951	101.5632
900.381	101.5371
900.811	101.51
901.241	101.505
901.671	101.5179
902.101	101.5305
902.531	101.5519
902.961	101.5438
903.391	101.5768
903.821	101.6088
904.251	101.6123
904.681	101.6455
905.111	101.6355
905.54	101.6483
905.97	101.6654
906.4	101.6681
906.83	101.6298
907.259	101.6505
907.689	101.6764
908.118	101.7005
908.548	101.6551
908.978	101.6531
909.407	101.6717
909.836	101.7231
910.266	101.7333
910.695	101.7244
911.125	101.7179
911.554	101.7576
911.983	101.7212
912.413	101.7148
912.842	101.6977
913.271	101.709
913.7	101.7214
914.129	101.7127
914.559	101.7279
914.988	101.7825
915.417	101.8048
915.846	101.8337
916.275	101.8602
916.704	101.8542
917.133	101.8643
917.562	101.906
917.99	101.8886
918.419	101.8829
918.848	101.8593
919.277	101.8428
919.706	101.8591
920.134	101.8797
920.563	101.8722
920.992	101.9322
921.42	101.9577
921.849	102.0052
922.277	102.0545
922.706	102.0439
923.134	102.0743
923.563	102.0556
923.991	102.0524
924.42	102.0435
924.848	102.0444
925.276	102.0199
925.705	102.0644
926.133	102.0602
926.561	102.0791
926.989	102.0765
927.418	102.0969
927.846	102.0861
928.274	102.099
928.702	102.1182
929.13	102.1226
929.558	102.1671
929.986	102.1937
930.414	102.1911
930.842	102.1872
931.27	102.1868
931.698	102.1897
932.126	102.2018
932.553	102.2095
932.981	102.1948
933.409	102.2477
933.837	102.2723
934.264	102.2844
934.692	102.2884
935.12	102.2698
935.547	102.2398
935.975	102.2604
936.402	102.2866
936.83	102.3114
937.257	102.3413
937.685	102.3492
938.112	102.4232
938.539	102.4139
938.967	102.4407
939.394	102.4105
939.821	102.4194
940.249	102.412
940.676	102.4159
941.103	102.3906
941.53	102.4539
941.957	102.4547
942.384	102.473
942.811	102.4624
943.238	102.4957
943.665	102.484
944.092	102.5313
944.519	102.5107
944.946	102.5043
945.373	102.541
945.8	102.5531
946.227	102.5672
946.653	102.5931
947.08	102.6092
947.507	102.6348
947.934	102.6593
948.36	102.6037
948.787	102.6201
949.213	102.6304
949.64	102.6391
950.067	102.6444
950.493	102.6462
950.919	102.6692
951.346	102.7097
951.772	102.7231
952.199	102.6928
952.625	102.6974
953.051	102.6536
953.478	102.6578
953.904	102.6677
954.33	102.637
954.756	102.7039
955.182	102.7348
955.608	102.7621
956.034	102.7783
956.461	102.7778
956.887	102.7251
957.313	102.7656
957.738	102.7225
958.164	102.7354
958.59	102.7611
959.016	102.7822
959.442	102.8184
959.868	102.8261
960.294	102.8347
960.719	102.8567
961.145	102.8635
961.571	102.8167
961.996	102.8425
962.422	102.8716
962.847	102.9137
963.273	102.911
963.698	102.906
964.124	102.911
964.549	102.8976
964.975	102.917
965.4	102.8799
965.826	102.8947
966.251	102.9359
966.676	102.9276
967.101	102.9176
967.527	102.951
967.952	102.9287
968.377	102.9512
968.802	102.938
969.227	102.9047
969.652	102.9143
970.077	102.9683
970.502	102.9835
970.927	102.9592
971.352	102.9692
971.777	102.9867
972.202	102.9888
972.627	102.9829
973.052	102.9234
973.476	102.9579
973.901	102.9715
974.326	102.9742
974.751	102.9724
975.175	103.0245
975.6	103.0266
976.024	103.0908
976.449	103.0664
976.873	103.1001
977.298	103.0859
977.722	103.0945
978.147	103.0635
978.571	103.0979
978.996	103.072
979.42	103.1091
979.844	103.1179
980.269	103.1788
980.693	103.1664
981.117	103.18
981.541	103.1978
981.965	103.2135
982.389	103.1711
982.813	103.1651
983.238	103.1441
983.662	103.202
984.086	103.195
984.509	103.1794
984.933	103.2181
985.357	103.2851
985.781	103.2728
986.205	103.2978
986.629	103.2813
987.053	103.2814
987.476	103.31
987.9	103.3047
988.324	103.285
988.747	103.3337
989.171	103.2984
989.594	103.3335
990.018	103.3519
990.441	103.3092
990.865	103.2929
991.288	103.2609
991.712	103.2265
992.135	103.2705
992.558	103.2565
992.982	103.2809
993.405	103.3658
993.828	103.3649
994.252	103.3803
994.675	103.4098
995.098	103.3981
995.521	103.3725
995.944	103.3629
996.367	103.3169
996.79	103.2841
997.213	103.2872
997.636	103.3069
998.059	103.3485
998.482	103.3664
998.905	103.3484
999.328	103.353
999.75	103.4307
1000.173	103.4305
1000.596	103.3619
1001.019	103.3088
1001.441	103.2784
1001.864	103.2931
1002.287	103.3236
1002.709	103.282
1003.132	103.2761
1003.554	103.37
1003.977	103.4189
1004.399	103.4249
1004.822	103.4392
1005.244	103.3799
1005.666	103.413
1006.089	103.4673
1006.511	103.3912
1006.933	103.3947
1007.355	103.4399
1007.778	103.395
1008.2	103.4579
1008.622	103.4012
1009.044	103.3481
1009.466	103.4048
1009.888	103.4094
1010.31	103.3881
1010.732	103.4059
1011.154	103.359
1011.576	103.3876
1011.998	103.4225
1012.42	103.3456
1012.841	103.2691
1013.263	103.3164
1013.685	103.353
1014.107	103.3628
1014.528	103.3414
1014.95	103.3465
1015.372	103.4537
1015.793	103.5054
1016.215	103.4189
1016.636	103.3867
1017.058	103.3952
1017.479	103.4383
1017.9	103.3787
1018.322	103.3241
1018.743	103.2953
1019.165	103.339
1019.586	103.37
1020.007	103.3514
1020.428	103.3547
1020.85	103.3905
1021.271	103.4191
1021.692	103.4059
1022.113	103.4883
1022.534	103.4875
1022.955	103.5012
1023.376	103.4579
1023.797	103.4873
1024.218	103.5183
1024.639	103.5656
1025.06	103.4994
1025.481	103.526
1025.901	103.5575
1026.322	103.6422
1026.743	103.667
1027.164	103.6455
1027.584	103.6557
1028.005	103.638
1028.425	103.5889
1028.846	103.5987
1029.267	103.5447
1029.687	103.5784
1030.108	103.565
1030.528	103.569
1030.948	103.5968
1031.369	103.6287
1031.789	103.631
1032.21	103.6775
1032.63	103.6687
1033.05	103.7101
1033.47	103.7252
1033.891	103.6899
1034.311	103.6917
1034.731	103.7728
1035.151	103.8195
1035.571	103.8817
1035.991	103.85
1036.411	103.8738
1036.831	103.8891
1037.251	103.9245
1037.671	103.9242
1038.091	103.8577
1038.51	103.7635
1038.93	103.8194
1039.35	103.7966
1039.77	103.8719
1040.189	103.8448
1040.609	103.7856
1041.029	103.841
1041.448	103.9312
1041.868	103.9446
1042.288	103.9711
1042.707	104.0521
1043.127	104.1247
1043.546	104.0902
1043.965	104.1266
1044.385	104.1046
1044.804	104.1995
1045.223	104.2133
1045.643	104.1054
1046.062	104.0814
1046.481	104.2078
1046.9	104.1979
1047.32	104.2264
1047.739	104.1111
1048.158	104.1946
1048.577	104.2853
1048.996	104.3808
1049.415	104.4176
1049.834	104.4626
1050.253	104.4456
1050.672	104.6033
1051.09	104.5579
1051.509	104.5457
1051.928	104.488
1052.347	104.3942
1052.766	104.4
1053.184	104.4319
1053.603	104.4131
1054.022	104.4184
1054.44	104.4593
1054.859	104.5164
1055.277	104.647
1055.696	104.5957
1056.114	104.5783
1056.533	104.5042
1056.951	104.5832
1057.369	104.5982
1057.788	104.6543
1058.206	104.6615
1058.624	104.729
1059.043	104.7771
1059.461	104.7843
1059.879	104.7764
1060.297	104.8149
1060.715	104.8137
1061.133	104.7157
1061.551	104.7781
1061.969	104.8453
1062.387	104.9021
1062.805	104.9166
1063.223	104.9157
1063.641	104.9259
1064.059	105.0195
1064.477	104.9995
1064.895	104.8817
1065.312	104.9142
1065.73	104.9526
1066.148	104.9154
1066.565	104.8249
1066.983	104.7981
1067.401	104.7712
1067.818	104.8113
1068.236	104.9101
1068.653	104.8903
1069.071	104.8899
1069.488	105.149
1069.905	105.2576
1070.323	105.3289
1070.74	105.4217
1071.157	105.3247
1071.575	105.3351
1071.992	105.4671
1072.409	105.2912
1072.826	105.248
1073.243	105.1829
1073.66	105.2377
1074.077	105.3414
1074.494	105.427
1074.911	105.4226
1075.328	105.5195
1075.745	105.6003
1076.162	105.7733
1076.579	105.8027
1076.996	105.7401
1077.413	105.6667
1077.83	105.7526
1078.246	105.7543
1078.663	105.8263
1079.08	105.8702
1079.496	106.0437
1079.913	105.9995
1080.329	105.9922
1080.746	105.9745
1081.163	105.931
1081.579	105.8991
1081.995	105.9265
1082.412	105.8481
1082.828	106.0754
1083.245	106.3296
1083.661	106.2976
1084.077	106.3012
1084.493	106.4815
1084.91	106.4372
1085.326	106.3838
1085.742	106.381
1086.158	106.2526
1086.574	106.3852
1086.99	106.4343
1087.406	106.3438
1087.822	106.298
1088.238	106.3113
1088.654	106.2804
1089.07	106.2935
1089.486	106.2268
1089.901	106.4345
1090.317	106.4738
1090.733	106.5571
1091.149	106.625
1091.564	106.5937
1091.98	106.8669
1092.396	107.02
1092.811	106.9861
1093.227	107.1327
1093.642	107.2452
1094.058	107.2904
1094.473	107.4031
1094.889	107.3692
1095.304	107.2492
1095.719	107.2328
1096.135	107.3157
1096.55	107.3426
1096.965	107.3355
1097.38	107.3224
1097.796	107.4393
1098.211	107.6515
1098.626	107.7664
1099.041	107.3931
1099.456	107.4603
1099.871	107.5767
1100.286	107.7819
1100.701	107.8403
1101.116	107.7249
1101.531	107.6948
1101.946	107.9432
1102.361	108.0908
1102.775	108.4769
1103.19	108.3214
1103.605	108.1276
1104.019	108.273
1104.434	108.3651
1104.849	108.2031
1105.263	108.1334
1105.678	107.8157
1106.092	108.0066
1106.507	107.9182
1106.921	108.0703
1107.336	108.1806
1107.75	108.3008
1108.165	108.1888
1108.579	108.2542
1108.993	108.29
1109.407	108.4945
1109.822	108.462
1110.236	108.1545
1110.65	108.4862
1111.064	108.8935
1111.478	108.8596
1111.892	109.0524
1112.306	109.157
1112.72	109.2111
1113.134	109.456
1113.548	109.7809
1113.962	109.5084
1114.376	110.1034
1114.79	109.7752
1115.204	109.8501
1115.617	109.8028
1116.031	110.5494
1116.445	109.6081
1116.858	110.0635
1117.272	107.2961
1117.686	199.4812
